time,voltage
0.0,-70.0
0.1,-70.0
0.2,-69.98129999999995
0.30000000000000004,-69.96260000535078
0.4,-69.94390006318447
0.5,-69.92520029824284
0.6,-69.90650092905213
0.7,-69.88780227182414
0.7999999999999999,-69.8691047370679
0.8999999999999999,-69.85040882221293
0.9999999999999999,-69.83171510237636
1.0999999999999999,-69.81302422060377
1.2,-69.79433687837175
1.3,-69.77565382678151
1.4000000000000001,-69.75697585864084
1.5000000000000002,-69.73830380148789
1.6000000000000003,-69.71963851152474
1.7000000000000004,-69.70098086838335
1.8000000000000005,-69.68233177062548
1.9000000000000006,-69.66369213187343
2.0000000000000004,-69.6450628774732
2.1000000000000005,-69.62644494160068
2.2000000000000006,-69.60783926473341
2.3000000000000007,-69.58924679142214
2.400000000000001,-69.57066846830833
2.500000000000001,-69.55210524234373
2.600000000000001,-69.53355805917721
2.700000000000001,-69.51502786168169
2.800000000000001,-69.49651558860016
2.9000000000000012,-69.4780221732948
3.0000000000000013,-69.45954854258706
3.1000000000000014,-69.44109561567971
3.2000000000000015,-69.42266430315419
3.3000000000000016,-69.40425550603806
3.4000000000000017,-69.38587011493891
3.5000000000000018,-69.36750900924162
3.600000000000002,-69.34917305636657
3.700000000000002,-69.33086311108686
3.800000000000002,-69.31258001490244
3.900000000000002,-69.29432459546972
4.000000000000002,-69.27609766608452
4.100000000000001,-69.25790002521701
4.200000000000001,-69.23973245609638
4.300000000000001,-69.22159572634378
4.4,-69.20349058765137
4.5,-69.1854177755055
4.6,-69.16737800895206
4.699999999999999,-69.14937199040192
4.799999999999999,-69.13140040547451
4.899999999999999,-69.11346392287722
4.999999999999998,-69.09556319431884
5.099999999999998,-69.07769885445492
5.1999999999999975,-69.05987152086301
5.299999999999997,-69.04208179404588
5.399999999999997,-69.02433025746095
5.4999999999999964,-69.0066174775739
5.599999999999996,-68.9889440039349
5.699999999999996,-68.97131036927566
5.799999999999995,-68.95371708962563
5.899999999999995,-68.93616466444605
5.999999999999995,-68.9186535767801
6.099999999999994,-68.90118429341786
6.199999999999994,-68.88375726507482
6.299999999999994,-68.86637292658263
6.399999999999993,-68.84903169709081
6.499999999999993,-68.83173398027856
6.5999999999999925,-68.8144801645753
6.699999999999992,-68.79727062338918
6.799999999999992,-68.78010571534259
6.8999999999999915,-68.76298578451366
6.999999999999991,-68.7459111606832
7.099999999999991,-68.72888215958604
7.19999999999999,-68.7118990831662
7.29999999999999,-68.69496221983532
7.39999999999999,-68.67807184473345
7.499999999999989,-68.66122821999197
7.599999999999989,-68.6444315949978
7.699999999999989,-68.6276822066586
7.799999999999988,-68.6109802796685
7.899999999999988,-68.59432602677366
7.999999999999988,-68.57771964903777
8.099999999999987,-68.56116133610662
8.199999999999987,-68.54465126647169
8.299999999999986,-68.52818960773237
8.399999999999986,-68.5117765168566
8.499999999999986,-68.49541214043953
8.599999999999985,-68.4790966149601
8.699999999999985,-68.46283006703523
8.799999999999985,-68.44661261367149
8.899999999999984,-68.43044436251405
8.999999999999984,-68.41432541209271
9.099999999999984,-68.39825585206493
9.199999999999983,-68.38223576345568
9.299999999999983,-68.36626521889404
9.399999999999983,-68.35034428284636
9.499999999999982,-68.33447301184604
9.599999999999982,-68.3186514547197
9.699999999999982,-68.30287965280972
9.799999999999981,-68.2871576401932
9.89999999999998,-68.27148544389708
9.99999999999998,-68.25586308410956
10.09999999999998,-68.24029057438779
10.19999999999998,-68.22476792186156
10.29999999999998,-68.20929512743339
10.399999999999979,-68.1938721859746
10.499999999999979,-68.17849908651756
10.599999999999978,-68.16317581244422
10.699999999999978,-68.1479023416706
10.799999999999978,-68.13267864682763
10.899999999999977,-68.11750469543807
10.999999999999977,-68.10238045008965
11.099999999999977,-68.08730586860452
11.199999999999976,-68.0722809042048
11.299999999999976,-68.05730550567459
11.399999999999975,-68.0423796175182
11.499999999999975,-68.02750318011469
11.599999999999975,-68.01267612986898
11.699999999999974,-67.99789839935917
11.799999999999974,-67.98316991748051
11.899999999999974,-67.96849060958579
11.999999999999973,-67.95386039762234
12.099999999999973,-67.9392792002656
12.199999999999973,-67.92474693304942
12.299999999999972,-67.91026350849295
12.399999999999972,-67.89582883622441
12.499999999999972,-67.8814428231016
12.599999999999971,-67.86710537332924
12.69999999999997,-67.85281638857333
12.79999999999997,-67.83857576807236
12.89999999999997,-67.82438340874555
12.99999999999997,-67.81023920529823
13.09999999999997,-67.7961430503243
13.199999999999969,-67.78209483440583
13.299999999999969,-67.76809444620989
13.399999999999968,-67.75414177258276
13.499999999999968,-67.74023669864134
13.599999999999968,-67.72637910786202
13.699999999999967,-67.71256888216693
13.799999999999967,-67.69880590200782
13.899999999999967,-67.68509004644727
13.999999999999966,-67.67142119323765
14.099999999999966,-67.6577992188977
14.199999999999966,-67.64422399878671
14.299999999999965,-67.6306954071766
14.399999999999965,-67.61721331732164
14.499999999999964,-67.60377760152613
14.599999999999964,-67.59038813120986
14.699999999999964,-67.57704477697162
14.799999999999963,-67.56374740865063
14.899999999999963,-67.55049589538599
14.999999999999963,-67.5372901056743
15.099999999999962,-67.52412990742525
15.199999999999962,-67.5110151680155
15.299999999999962,-67.49794575434076
15.399999999999961,-67.48492153286605
15.499999999999961,-67.47194236967437
15.59999999999996,-67.45900813051354
15.69999999999996,-67.44611868084164
15.79999999999996,-67.43327388587065
15.89999999999996,-67.42047361060872
15.99999999999996,-67.40771771990084
16.09999999999996,-67.39500607846809
16.19999999999996,-67.38233855094539
16.29999999999996,-67.36971500191801
16.399999999999963,-67.35713529595655
16.499999999999964,-67.34459929765077
16.599999999999966,-67.33210687164197
16.699999999999967,-67.31965788265425
16.79999999999997,-67.30725219552451
16.89999999999997,-67.29488967523123
16.99999999999997,-67.28257018692217
17.099999999999973,-67.27029359594088
17.199999999999974,-67.25805976785217
17.299999999999976,-67.2458685684665
17.399999999999977,-67.23371986386331
17.49999999999998,-67.22161352041343
17.59999999999998,-67.2095494048004
17.69999999999998,-67.19752738404098
17.799999999999983,-67.18554732550461
17.899999999999984,-67.17360909693207
17.999999999999986,-67.16171256645319
18.099999999999987,-67.14985760260383
18.19999999999999,-67.13804407434193
18.29999999999999,-67.12627185106282
18.39999999999999,-67.11454080261376
18.499999999999993,-67.10285079930769
18.599999999999994,-67.09120171193631
18.699999999999996,-67.07959341178245
18.799999999999997,-67.06802577063172
18.9,-67.05649866078349
19.0,-67.04501195506128
19.1,-67.03356552682251
19.200000000000003,-67.02215924996763
19.300000000000004,-67.01079299894865
19.400000000000006,-66.99946664877716
19.500000000000007,-66.98818007503176
19.60000000000001,-66.97693315386496
19.70000000000001,-66.96572576200958
19.80000000000001,-66.95455777678465
19.900000000000013,-66.94342907610083
20.000000000000014,-66.93233953846533
20.100000000000016,-66.92128904298644
20.200000000000017,-66.91027746937763
20.30000000000002,-66.89930469796111
20.40000000000002,-66.88837060967114
20.50000000000002,-66.87747508605682
20.600000000000023,-66.86661800928461
20.700000000000024,-66.85579926214038
20.800000000000026,-66.8450187280312
20.900000000000027,-66.83427629098674
21.00000000000003,-66.82357183566029
21.10000000000003,-66.81290524732958
21.20000000000003,-66.80227641189722
21.300000000000033,-66.79168521589087
21.400000000000034,-66.78113154646303
21.500000000000036,-66.77061529139078
21.600000000000037,-66.76013633907502
21.70000000000004,-66.74969457853956
21.80000000000004,-66.73928989943002
21.90000000000004,-66.72892219201238
22.000000000000043,-66.71859134717137
22.100000000000044,-66.70829725640868
22.200000000000045,-66.69803981184089
22.300000000000047,-66.68781890619718
22.40000000000005,-66.67763443281702
22.50000000000005,-66.66748628564743
22.60000000000005,-66.6573743592403
22.700000000000053,-66.64729854874933
22.800000000000054,-66.63725874992704
22.900000000000055,-66.6272548591214
23.000000000000057,-66.61728677327241
23.10000000000006,-66.60735438990866
23.20000000000006,-66.59745760714354
23.30000000000006,-66.58759632367142
23.400000000000063,-66.5777704387638
23.500000000000064,-66.56797985226521
23.600000000000065,-66.55822446458902
23.700000000000067,-66.54850417671325
23.800000000000068,-66.53881889017619
23.90000000000007,-66.5291685070719
24.00000000000007,-66.51955293004573
24.100000000000072,-66.50997206228969
24.200000000000074,-66.50042580753772
24.300000000000075,-66.49091407006095
24.400000000000077,-66.48143675466285
24.500000000000078,-66.47199376667433
24.60000000000008,-66.46258501194876
24.70000000000008,-66.45321039685696
24.800000000000082,-66.44386982828216
24.900000000000084,-66.43456321361482
25.000000000000085,-66.42529046074752
25.100000000000087,-66.41605147806972
25.200000000000088,-66.40684617446253
25.30000000000009,-66.39767445929346
25.40000000000009,-66.38853624241106
25.500000000000092,-66.37943143413968
25.600000000000094,-66.37035994527399
25.700000000000095,-66.3613216870737
25.800000000000097,-66.35231657125813
25.900000000000098,-66.34334451000079
26.0000000000001,-66.33440541592398
26.1000000000001,-66.32549920209333
26.200000000000102,-66.31662578201237
26.300000000000104,-66.3077850696171
26.400000000000105,-66.29897697927049
26.500000000000107,-66.2902014257571
26.600000000000108,-66.28145832427758
26.70000000000011,-66.27274759044322
26.80000000000011,-66.26406914027054
26.900000000000112,-66.25542289017584
27.000000000000114,-66.24680875696977
27.100000000000115,-66.23822665785197
27.200000000000117,-66.2296765104056
27.300000000000118,-66.22115823259197
27.40000000000012,-66.21267174274526
27.50000000000012,-66.20421695956702
27.600000000000122,-66.19579380212097
27.700000000000124,-66.18740218982764
27.800000000000125,-66.17904204245906
27.900000000000126,-66.17071328013355
28.000000000000128,-66.16241582331047
28.10000000000013,-66.15414959278495
28.20000000000013,-66.14591450968278
28.300000000000132,-66.13771049545524
28.400000000000134,-66.12953747187392
28.500000000000135,-66.12139536102568
28.600000000000136,-66.11328408530758
28.700000000000138,-66.10520356742185
28.80000000000014,-66.09715373037085
28.90000000000014,-66.08913449745215
29.000000000000142,-66.08114579225361
29.100000000000144,-66.07318753864844
29.200000000000145,-66.06525966079039
29.300000000000146,-66.05736208310891
29.400000000000148,-66.0494947303044
29.50000000000015,-66.04165752734342
29.60000000000015,-66.03385039945401
29.700000000000152,-66.02607327212107
29.800000000000153,-66.01832607108167
29.900000000000155,-66.01060872232054
30.000000000000156,-66.00292115206547
30.100000000000158,-65.99526328678286
30.20000000000016,-65.98763505317324
30.30000000000016,-65.98003637816687
30.400000000000162,-65.97246718891941
30.500000000000163,-65.96492741280751
30.600000000000165,-65.95741697742463
30.700000000000166,-65.94993581057672
30.800000000000168,-65.9424838402781
30.90000000000017,-65.93506099474727
31.00000000000017,-65.92766720240286
31.100000000000172,-65.9203023918595
31.200000000000173,-65.91296649192387
31.300000000000175,-65.90565943159073
31.400000000000176,-65.898381140039
31.500000000000178,-65.89113154662789
31.60000000000018,-65.88391058089304
31.70000000000018,-65.87671817254281
31.800000000000182,-65.8695542514545
31.900000000000183,-65.86241874767069
32.000000000000185,-65.85531159139558
32.100000000000186,-65.8482327129914
32.20000000000019,-65.8411820429749
32.30000000000019,-65.83415951201383
32.40000000000019,-65.82716505092344
32.50000000000019,-65.82019859066318
32.60000000000019,-65.81326006233327
32.700000000000195,-65.80634939717139
32.800000000000196,-65.79946652654944
32.9000000000002,-65.7926113819703
33.0000000000002,-65.7857838950647
33.1000000000002,-65.77898399758803
33.2000000000002,-65.77221162141731
33.3000000000002,-65.76546669854817
33.400000000000205,-65.75874916109181
33.500000000000206,-65.75205894127211
33.60000000000021,-65.74539597142271
33.70000000000021,-65.73876018398416
33.80000000000021,-65.73215151150113
33.90000000000021,-65.72556988661965
34.00000000000021,-65.7190152420844
34.100000000000215,-65.71248751073601
34.200000000000216,-65.70598662550852
34.30000000000022,-65.69951251942669
34.40000000000022,-65.69306512560358
34.50000000000022,-65.68664437723798
34.60000000000022,-65.680250207612
34.70000000000022,-65.67388255008868
34.800000000000225,-65.66754133810959
34.900000000000226,-65.66122650519256
35.00000000000023,-65.6549379849294
35.10000000000023,-65.64867571098368
35.20000000000023,-65.64243961708851
35.30000000000023,-65.63622963704445
35.40000000000023,-65.63004570471738
35.500000000000234,-65.62388775403643
35.600000000000236,-65.61775571899203
35.70000000000024,-65.61164953363385
35.80000000000024,-65.60556913206894
35.90000000000024,-65.59951444845977
36.00000000000024,-65.59348541702248
36.10000000000024,-65.58748197202496
36.200000000000244,-65.58150404778516
36.300000000000246,-65.5755515786693
36.40000000000025,-65.56962449909025
36.50000000000025,-65.56372274350582
36.60000000000025,-65.55784624641717
36.70000000000025,-65.55199494236726
36.80000000000025,-65.54616876593926
36.900000000000254,-65.5403676517551
37.000000000000256,-65.53459153447402
37.10000000000026,-65.5288403487911
37.20000000000026,-65.52311402943593
37.30000000000026,-65.51741251117123
37.40000000000026,-65.51173572879155
37.50000000000026,-65.506083617122
37.600000000000264,-65.50045611101702
37.700000000000266,-65.49485314535914
37.80000000000027,-65.4892746550579
37.90000000000027,-65.4837205750486
38.00000000000027,-65.4781908402913
38.10000000000027,-65.47268538576974
38.20000000000027,-65.46720414649026
38.300000000000274,-65.46174705748089
38.400000000000276,-65.45631405379031
38.50000000000028,-65.45090507048698
38.60000000000028,-65.44552004265822
38.70000000000028,-65.44015890540933
38.80000000000028,-65.43482159386284
38.90000000000028,-65.4295080431576
39.000000000000284,-65.42421818844811
39.100000000000286,-65.41895196490373
39.20000000000029,-65.413709307708
39.30000000000029,-65.408490152058
39.40000000000029,-65.4032944331636
39.50000000000029,-65.39812208624696
39.60000000000029,-65.39297304654191
39.700000000000294,-65.3878472492934
39.800000000000296,-65.38274462975694
39.9000000000003,-65.37766512319816
40.0000000000003,-65.3726086648923
40.1000000000003,-65.36757519012379
40.2000000000003,-65.36256463418583
40.3000000000003,-65.35757693238004
40.400000000000304,-65.35261202001605
40.500000000000306,-65.34766983241121
40.60000000000031,-65.34275030489026
40.70000000000031,-65.33785337278506
40.80000000000031,-65.33297897143437
40.90000000000031,-65.32812703618357
41.00000000000031,-65.32329750238452
41.100000000000314,-65.3184903053953
41.200000000000315,-65.31370538058016
41.30000000000032,-65.3089426633093
41.40000000000032,-65.30420208895883
41.50000000000032,-65.29948359291068
41.60000000000032,-65.2947871105525
41.70000000000032,-65.2901125772777
41.800000000000324,-65.28545992848535
41.900000000000325,-65.28082909958029
42.00000000000033,-65.27622002597306
42.10000000000033,-65.27163264308007
42.20000000000033,-65.26706688632356
42.30000000000033,-65.26252269113178
42.40000000000033,-65.25799999293909
42.500000000000334,-65.25349872718607
42.600000000000335,-65.24901882931972
42.70000000000034,-65.24456023479361
42.80000000000034,-65.2401228790681
42.90000000000034,-65.23570669761054
43.00000000000034,-65.23131162589553
43.10000000000034,-65.22693759940513
43.200000000000344,-65.22258455362922
43.300000000000345,-65.21825242406568
43.40000000000035,-65.21394114622082
43.50000000000035,-65.20965065560961
43.60000000000035,-65.20538088775606
43.70000000000035,-65.20113177819363
43.80000000000035,-65.19690326246553
43.900000000000354,-65.19269527612515
44.000000000000355,-65.18850775473649
44.10000000000036,-65.18434063387458
44.20000000000036,-65.18019384912591
44.30000000000036,-65.17606733608888
44.40000000000036,-65.17196103037429
44.50000000000036,-65.16787486760585
44.600000000000364,-65.16380878342062
44.700000000000365,-65.1597627134696
44.80000000000037,-65.15573659341823
44.90000000000037,-65.15173035894688
45.00000000000037,-65.14774394575153
45.10000000000037,-65.14377728954422
45.20000000000037,-65.13983032605371
45.300000000000374,-65.13590299102606
45.400000000000375,-65.13199522022519
45.50000000000038,-65.1281069494336
45.60000000000038,-65.1242381144529
45.70000000000038,-65.1203886511045
45.80000000000038,-65.11655849523031
45.90000000000038,-65.11274758269332
46.000000000000384,-65.10895584937833
46.100000000000385,-65.10518323119264
46.20000000000039,-65.10142966406673
46.30000000000039,-65.09769508395497
46.40000000000039,-65.09397942683636
46.50000000000039,-65.09028262871523
46.60000000000039,-65.08660462562199
46.700000000000394,-65.0829453536139
46.800000000000395,-65.07930474877577
46.9000000000004,-65.07568274722078
47.0000000000004,-65.07207928509122
47.1000000000004,-65.06849429855929
47.2000000000004,-65.06492772382785
47.3000000000004,-65.0613794971313
47.400000000000404,-65.05784955473626
47.500000000000405,-65.05433783294252
47.600000000000406,-65.05084426808375
47.70000000000041,-65.04736879652836
47.80000000000041,-65.04391135468035
47.90000000000041,-65.04047187898013
48.00000000000041,-65.03705030590537
48.10000000000041,-65.03364657197184
48.200000000000415,-65.0302606137343
48.300000000000416,-65.02689236778731
48.40000000000042,-65.02354177076613
48.50000000000042,-65.02020875934757
48.60000000000042,-65.0168932702509
48.70000000000042,-65.01359524023873
48.80000000000042,-65.01031460611784
48.900000000000425,-65.00705130474014
49.000000000000426,-65.00380527300352
49.10000000000043,-65.00057644785277
49.20000000000043,-64.99736476628046
49.30000000000043,-64.99417016532789
49.40000000000043,-64.99099258208595
49.50000000000043,-64.98783195369607
49.600000000000435,-64.9846882173511
49.700000000000436,-64.98156131029626
49.80000000000044,-64.97845116983004
49.90000000000044,-64.97535773330513
50.00000000000044,-64.97228093812936
50.10000000000044,-64.9692207217666
50.20000000000044,-64.96617702173772
50.300000000000445,-64.96314977562147
50.400000000000446,-64.9601389210555
50.50000000000045,-64.9571443957372
50.60000000000045,-64.9541661374247
50.70000000000045,-64.95120408393778
50.80000000000045,-64.9482581731588
50.90000000000045,-64.94532834303368
51.000000000000455,-64.94241453157278
51.100000000000456,-64.93951667685188
51.20000000000046,-64.9366347170131
51.30000000000046,-64.93376859026588
51.40000000000046,-64.93091823488786
51.50000000000046,-64.92808358922582
51.60000000000046,-64.9252645916967
51.700000000000465,-64.92246118078847
51.800000000000466,-64.91967329506106
51.90000000000047,-64.91690087314734
52.00000000000047,-64.91414385375404
52.10000000000047,-64.91140217566267
52.20000000000047,-64.90867577773047
52.30000000000047,-64.90596459889133
52.400000000000475,-64.90326857815676
52.500000000000476,-64.90058765461674
52.60000000000048,-64.89792176744076
52.70000000000048,-64.89527085587865
